# Chunk-averaged data for fix bin1 and group all
# Timestep Number-of-chunks Total-count
# Chunk Coord1 Ncount vx vy vz c_peratom[1] c_peratom[2] c_peratom[3] temp
0 92 43672908
  1 9.11396 469921 0.000660762 -0.00224867 4.11187 133832 133578 -893836 2370.16
  2 29.439 481534 0.00176484 -0.000893383 -0.00886208 -5748.59 -5688.76 -11124 301.769
  3 49.764 470401 -0.000872193 0.00140736 -0.00633932 -11797.1 -11758.9 -23507.1 301.492
  4 70.089 471912 -0.000437243 -0.000762343 -0.0245045 1520.48 1754.99 1820.64 300.994
  5 90.414 490965 -0.000475603 -0.000977282 0.0291398 15302.5 15936.1 33243.6 300.087
  6 110.739 470723 -0.00169975 0.00124857 0.0247765 -12090 -12048.1 -24883 300.565
  7 131.064 470413 -0.000583952 -0.00216315 -0.00718105 3976.32 4573.18 8017.77 300.73
  8 151.389 487816 0.00163903 0.000510607 0.0172903 -8188.08 -8178.93 -17641.3 300.882
  9 171.714 475371 -0.00036511 0.000759988 -0.0199477 10933.7 11292.3 24170.8 300.367
  10 192.039 470400 0.000865013 -0.000566586 -0.00321583 2087.47 1603.17 3880.23 299.578
  11 212.364 473737 0.000613546 0.000973007 0.000360794 774.081 1271.03 2439.81 300.302
  12 232.689 489411 0.00191888 -0.000856566 0.000670666 381.861 293.666 206.776 299.889
  13 253.014 470452 -0.000800208 -0.000294444 -0.003521 1639.09 1802.41 3663.14 300.04
  14 273.339 470477 0.00109611 -0.00154155 0.000743808 1261.19 -316.386 460.907 300.313
  15 293.664 490123 0.000327698 -0.000564977 -0.00235712 686.981 -75.4699 153.955 299.934
  16 313.989 473000 -0.00133901 -0.0011006 0.00172004 364.026 832.074 1199.84 300.255
  17 334.314 470400 -0.00151165 0.00195585 0.00187057 120.684 722.739 318.099 299.594
  18 354.639 477878 0.000585014 -0.0047228 -0.00151561 -984.379 -910.496 -2005.11 299.739
  19 374.964 485314 0.000911655 0.000188911 -0.000601451 -1613.45 -1424.28 -3577.09 300.099
  20 395.289 470408 0.000351592 8.48429e-05 0.000565276 -1428.21 -988.105 -2719.64 300.345
  21 415.614 470783 -5.95503e-05 0.00181087 -0.000760228 1275.69 2006.13 3433.32 300.036
  22 435.939 491665 0.000255272 0.00282424 -0.00282696 -6.25116 436.949 39.6254 300.396
  23 456.264 471152 -0.00335678 -0.00188107 -0.00062793 1187.39 1459.37 2704.35 300.009
  24 476.589 470401 0.00492632 -0.00212978 -0.00153811 1609.68 1486.22 2712.96 300.158
  25 496.914 483045 0.00320748 0.00201185 0.000948734 556.767 455.192 1132.12 299.945
  26 517.239 480153 -0.00245794 0.00191444 -0.00389442 938.247 890.216 1705.02 300.264
  27 537.564 470401 -0.000577598 0.00121716 -0.000641511 -1787.42 -943.995 -3384.98 299.925
  28 557.889 471842 0.00393498 0.00206415 -2.32838e-05 2207.51 1326.75 4289.24 300.453
  29 578.214 491193 -0.00149739 0.000136756 -0.00176812 -149.073 146.215 -459.441 299.544
  30 598.539 470565 0.000295705 0.000218754 0.00135685 530.49 -100.974 88.2523 299.687
  31 618.864 470418 -0.000490611 -0.000994889 0.000764216 -33.811 759.298 1045.02 299.889
  32 639.189 487806 0.00492886 0.00288307 0.00111397 384.664 -245.157 -237.431 299.894
  33 659.514 475376 0.000318262 0.00165005 0.00175002 392.669 -634.607 -555.072 299.781
  34 679.839 470400 -0.00223607 -0.000366815 -0.00121999 -83.545 -815.226 -901.716 300.068
  35 700.164 474679 0.00190157 0.000915857 -8.61026e-05 716.816 998.245 1122.04 300.044
  36 720.489 488482 -0.00346611 -0.00357023 0.00253328 2311.88 2421.87 5547.68 300.249
  37 740.814 470439 -0.00156583 0.00323325 -0.000769382 276.406 703.991 1032.15 300.184
  38 761.139 470529 -0.000420717 0.000657655 0.00123418 -374.686 -1552.02 -2115.94 300.028
  39 781.464 490631 0.000387476 0.00297454 8.30625e-05 1031.74 2063.86 2827.36 300.382
  40 801.789 472439 -0.00158439 0.00421834 -0.00218677 2043.19 2142.2 4592.55 300.04
  41 822.114 468748 -0.00104204 -0.0015246 0.00309837 1913.5 2043.27 588.811 300.303
  42 842.439 475794 0.000493746 0.000310576 -0.00144848 1921.74 2621.3 -245.016 299.976
  43 862.764 481983 -0.00051552 -0.00108955 -0.00206096 2795.42 3739.3 1706.51 300.582
  44 883.089 470384 -5.71819e-05 0.000965717 0.000904449 535.972 582.826 630.56 299.68
  45 903.414 471027 0.00177212 -0.00241916 0.0021185 -1303.48 -1925.38 -3322.03 300.489
  46 923.739 491659 3.23715e-05 -0.00095834 -0.000697845 1524.95 738.712 2323.24 300.35
  47 944.064 470914 -0.00319026 0.000876714 -0.0036648 484.619 -131.559 346.749 300.318
  48 964.389 470401 0.00290426 0.00411869 -0.00185943 1119.57 943.651 2089.22 300.143
  49 984.714 484455 -0.00174459 0.00175566 -0.00101182 248.274 -101.653 -512.392 299.591
  50 1005.04 478743 -0.000606136 0.00169534 -0.000352009 668.109 763.904 1550.54 300.16
  51 1025.36 470401 0.000822519 -0.00141032 -0.00163834 -1191.69 -1655.89 -2967.73 299.618
  52 1045.69 472546 -0.000423149 -0.000456101 -0.00112267 411.072 339.887 926.101 300.423
  53 1066.01 490547 0.00209297 -0.00104447 -0.00103454 121.336 -558.185 -841.989 300.036
  54 1086.34 470507 0.000230717 -0.00195043 -0.00075018 713.814 140.634 512.757 300.247
  55 1106.66 470435 0.00115823 0.000761039 -0.000375623 -190.16 -721.546 -1328.05 299.617
  56 1126.99 489040 -0.00217675 -0.0027903 0.000243585 -1028.58 -906.269 -2143.88 300.14
  57 1147.31 474125 0.000761967 -0.00151445 0.000462158 748.205 468.438 946.729 300.079
  58 1167.64 470400 -0.0016818 -0.00124987 -0.00115194 -1355.26 -1183.2 -3007.2 299.968
  59 1187.96 476216 -0.00196819 -0.00123347 0.0033165 -1030.82 -815.462 -1477.78 300.195
  60 1208.29 486968 -0.00114029 -0.000910898 0.00232017 -1116.62 -765.035 -2386.46 299.569
  61 1228.61 470416 0.000776794 0.000266618 0.00064394 -616.147 -1523.03 -3231.85 299.591
  62 1248.94 470635 0.00127873 0.00134984 2.68478e-05 2073.04 1579.04 3726.99 299.923
  63 1269.26 491360 0.00027939 -0.00157877 -0.000841063 243.602 296.075 720.97 300.526
  64 1289.59 471605 -0.000301761 -0.00138692 -0.00305273 747.144 302.482 814.045 300.126
  65 1309.91 470400 0.0027109 0.00032467 0.00105581 -1158.55 57.6989 -1396.06 300.216
  66 1330.24 481447 -0.00106941 0.00262417 -0.00162492 -1001.82 -505.987 -1787.84 300.318
  67 1350.56 481753 0.000643167 -0.00176534 0.00209686 1130.36 879.099 2010.92 300.365
  68 1370.89 470400 -0.000890506 0.000693821 0.000419361 -45.4183 284.117 363.982 300.387
  69 1391.21 471537 -0.00140955 4.85911e-05 -0.00144025 -1452.46 -937.346 -2773.42 300.324
  70 1411.54 491358 0.000340009 -0.00093346 3.5805e-06 -516.53 -1042 -2258.34 300.109
  71 1431.86 470705 0.00158679 -0.000545952 0.00265718 -2816.61 -2842.85 -6502.58 299.735
  72 1452.19 470409 -0.00392956 0.00175027 0.000122571 58.0477 -248.107 -561.136 299.352
  73 1472.51 486980 -4.30484e-05 -0.00198677 0.00157197 126.113 -77.021 -319.584 300.187
  74 1492.84 476211 -0.00126373 -0.000858457 0.00189691 111.98 310.406 551.461 300.514
  75 1513.16 470400 -0.00529032 -0.00142966 -0.00240763 534.677 389.687 1101.77 300.55
  76 1533.49 474099 0.000222539 0.000427157 -0.00275752 -640.981 -875.391 -1123.56 300.427
  77 1553.81 489058 -0.00173467 9.33212e-05 0.00197429 -1662.51 -1525.35 -4241.31 299.688
  78 1574.14 470443 -0.00117787 0.000585233 -0.000853912 1073.84 1043.29 2134.77 299.785
  79 1594.46 470513 0.00413527 0.00150727 0.000767374 -2659.74 -1684.13 -4870.71 300.217
  80 1614.79 490403 0.000785289 0.000371033 0.000635843 1106.03 764.622 1895.57 300.354
  81 1635.11 472684 -0.00077191 -0.00061208 -0.000199189 1539.67 1475.2 3081.05 300.043
  82 1655.44 470401 -0.000389103 -0.00145322 0.00182264 1281.15 1779.48 2880.32 300.009
  83 1675.76 477932 0.000596947 -0.0014598 0.00717644 4292.23 4951.31 10414.7 300.502
  84 1696.09 485262 0.00157553 0.0018215 -0.0145077 -6730.15 -7533.77 -16194.7 300.096
  85 1716.41 470405 0.00021264 0.000290664 0.009094 5855.33 6191.38 13129.3 300.279
  86 1736.74 471009 0.000655678 -0.000696382 -0.0167719 -8198.71 -9021.67 -17819 301.554
  87 1757.06 491427 0.00139364 0.000373434 0.0141937 10345.8 10569 21448.4 299.98
  88 1777.39 471164 -0.00162267 7.42468e-05 0.00591344 -3950.49 -3825.63 -8914.42 300.571
  89 1797.71 470405 -0.00091046 0.00213453 0.0195134 -6171.25 -6540.75 -12396.5 301.341
  90 1818.04 483010 7.04753e-05 -0.000910791 -0.018176 9161.38 9063.85 17866.6 301.453
  91 1838.36 480185 0.000587779 0.000670096 -0.00612488 2833.13 3001.55 7399.88 302.775
  92 1858.69 280544 0.00507079 -0.00475135 0.000358801 175617 177228 -6012.73 303.736
400 92 43672908
  1 11.679 503439 0.00155584 -0.00191787 7.35374 -2.32579e+06 -2.32506e+06 -7.33437e+06 4136.42
  2 32.004 502923 0.00117144 -0.00144807 3.39779 -1.9618e+06 -1.96243e+06 -5.54308e+06 2379.41
  3 52.329 482694 -0.000564986 0.00156928 -0.00925261 -9292.23 -8854.05 -20525.4 302.038
  4 72.654 470400 -0.00125237 -0.000222057 0.0205837 21526.3 22247.1 46864.4 299.947
  5 92.979 471071 -0.000775457 0.000636405 0.00526387 -2002.02 -1666.18 -3872.95 299.881
  6 113.304 491686 -0.00123273 -0.00218229 0.00614898 -1758.17 -2093.37 -4008.02 300.003
  7 133.629 470843 0.00111909 0.000160189 -0.0217287 12696.7 13102.1 26223.6 300.648
  8 153.954 470404 0.000705758 0.00145601 -0.00108621 1673.58 1788.5 3840.94 300.518
  9 174.279 485637 0.00033454 -4.3198e-05 0.0389294 -21763.6 -21323.1 -47218.6 300.5
  10 194.604 477558 -0.000202138 -0.00127691 -0.0165806 10135 9672.06 21645.5 300.016
  11 214.929 470401 0.000909136 0.00147467 -0.000602263 1230.68 1993.26 3321.3 300.651
  12 235.254 472480 0.00383552 -0.00285225 -0.000114874 -411.161 -188.414 -790.089 299.885
  13 255.579 490620 0.00020182 2.92956e-05 -0.000339775 912.877 596.131 1271.63 300.822
  14 275.904 470500 -0.0015356 0.000619396 -0.00365345 2023.68 209.645 2097.99 300.184
  15 296.229 470434 -0.000695574 -0.00219134 0.00127307 218.335 254.454 280.886 299.325
  16 316.554 488789 0.000363804 -0.000543182 -0.000524656 1292.21 1617.11 2945.12 299.944
  17 336.879 474376 -0.000903693 0.000585653 -0.000949598 -790.154 -155.284 -1118.94 300.156
  18 357.204 470401 -0.00137159 -0.00335995 -7.49486e-05 -1449.58 -1308.95 -3359.86 300.356
  19 377.529 475804 0.00151067 0.000530523 -0.00136644 -703.4 -774.268 -1364.76 300.285
  20 397.854 487378 0.000783835 0.000504464 0.00254066 -964.107 -124.522 -1260.91 299.611
  21 418.179 470418 0.000181492 0.00146602 -0.000561717 -414.662 -296.662 -1209.38 299.901
  22 438.504 470600 -0.00195601 0.000325869 -0.00165835 1254.7 1934.61 3543.05 300.598
  23 458.829 491232 0.000935147 0.00119315 -0.00219286 1352.23 1232.46 2501.9 299.892
  24 479.154 471768 0.00324382 -0.0012108 0.00141685 968.578 435.223 1395.1 300.421
  25 499.479 470400 0.00175802 0.000802689 -0.00410348 229.403 806.318 1254.44 300.444
  26 519.804 480718 -0.00273041 9.32554e-05 -0.00173666 -581.87 -628.527 -1628.37 299.991
  27 540.129 482482 0.00212308 0.00272337 -0.00020496 1816.76 1845.29 3804.65 300.57
  28 560.454 470400 0.00145588 0.00246073 -0.000811123 -389.989 -698.278 -1471.56 300.227
  29 580.779 471207 -0.000334347 3.27509e-05 -0.000782631 1663.95 1468.03 3452.58 300.072
  30 601.104 491625 0.0002809 6.48448e-05 0.000606425 1011.44 578.248 977.924 299.828
  31 621.429 470768 0.00108393 -0.000382093 -0.000189681 -303.847 -244.084 -455.001 300.071
  32 641.754 470410 0.0036135 0.00172154 0.00220983 56.4268 338.699 -195.816 300.308
  33 662.079 485786 -0.00108615 0.000276832 -0.000665818 -829.156 -453.205 -1866.87 300.097
  34 682.404 477404 -0.00216898 0.0044195 0.00193354 324.958 -699.754 -740.47 299.926
  35 702.729 470400 0.00121573 -0.0037044 0.00261103 1414.58 1838.06 3453.49 300.779
  36 723.054 473055 -0.0029939 -0.000723306 0.000362511 628.327 1248.35 2339.38 300.173
  37 743.379 490059 0.00124464 0.0017741 -0.00195301 695.169 269.852 113.749 300.137
  38 763.704 470486 -0.00211467 -0.000180698 0.000182864 1436.19 1118.11 2963.51 300.485
  39 784.029 470450 -0.000962227 0.00536326 0.00238662 -459.305 -250.47 -706.015 300.366
  40 804.354 489456 -0.000460763 0.00209199 0.000340148 2417.56 1585.51 3422.76 300.399
  41 824.679 471607 -0.001176 -0.00137407 -0.00304516 2264.25 3347.12 1531.44 300.153
  42 845.004 467108 -0.0011073 0.000623725 0.000740177 634.283 1427.33 -2204.42 299.962
  43 865.329 475145 0.00179931 -0.000161112 0.000313131 2127.09 2853.09 1694.94 300.104
  44 885.654 486330 0.000790815 -0.00128907 -0.00170257 907.608 -19.8674 472.651 300.101
  45 905.979 470412 0.00164082 -0.000657757 0.00186789 238.092 -246.669 -8.06244 300.572
  46 926.304 470731 -0.00110487 -5.68901e-05 -0.0013457 -924.498 -1396.76 -2402.32 300.642
  47 946.629 491496 -0.00335005 4.60868e-05 -0.000565257 157.415 -29.0452 -174.412 299.945
  48 966.954 471373 0.00197968 0.00327044 -0.00421335 1706.11 1111.72 3311.88 300.214
  49 987.279 470404 -0.000912927 0.00190913 0.00145394 218.047 252.013 -222.538 299.463
  50 1007.6 482121 0.00086154 0.00177737 -0.00349537 -462.141 -921.533 -1237.01 300.178
  51 1027.93 481074 0.000211747 0.000148162 -0.00100206 1166.03 549.696 1901.53 300.079
  52 1048.25 470401 -0.00092265 -0.00201783 -0.00113359 -296.421 -1244.28 -1491.68 300.492
  53 1068.58 471711 0.0016694 -0.00089445 -0.00133157 183.916 400.289 -27.6128 300.398
  54 1088.9 491272 0.00181958 -0.00291682 -0.00032746 658.45 -316.18 -621.666 300.51
  55 1109.23 470617 0.000190371 0.00088835 -0.000618112 524.107 -83.1604 -55.0858 300.103
  56 1129.55 470423 -0.00113627 -0.00211119 -0.000191846 88.7472 166.264 184.246 300.178
  57 1149.88 487491 -0.0010532 -0.000987044 7.95473e-05 -1586.82 -1816.38 -3720.78 300.198
  58 1170.2 475686 -0.00340026 -0.00130857 0.000721281 1374.37 1918.99 3362.75 300.343
  59 1190.53 470400 -0.000275775 -0.00152784 0.00118949 -2027.4 -1003.68 -3114.11 300.298
  60 1210.85 474350 0.00116317 -0.000466562 0.00176581 -1043.7 -1112.38 -2022.92 299.529
  61 1231.18 488810 -0.00157582 -0.000272494 0.00349255 -755.428 -438.818 -2090.84 300.06
  62 1251.5 470440 0.00303203 0.00113023 0.000619243 -590.343 -1519.57 -2312.32 300.114
  63 1271.83 470514 -0.00181755 -0.00243727 -0.00368294 298.914 628.597 971.028 300.486
  64 1292.15 490723 -0.000489287 0.000293964 0.000432286 124.886 443.608 929.035 299.975
  65 1312.48 472363 0.000567087 0.00054065 -0.00394221 -440.823 316.271 -10.0852 299.666
  66 1332.8 470400 0.00207707 -0.000983307 0.00279368 745.638 866.638 1608.27 300.543
  67 1353.13 478889 0.00127108 0.00180448 0.000917474 85.5481 555.406 1127.23 300.493
  68 1373.45 484305 -0.00303497 0.000593405 -0.00168934 -1432.16 -902.527 -3100.75 300.581
  69 1393.78 470406 -0.000342493 -0.000599715 -0.000816196 -35.4821 217.898 -474.56 300.417
  70 1414.1 471028 0.00282922 -0.000278235 -9.47082e-05 -1305.56 -1535.96 -2705.89 299.949
  71 1434.43 491678 -0.00114637 -0.000299162 0.000349367 -1504.87 -1008.81 -2975.55 300.171
  72 1454.75 470894 -0.00355819 0.000820192 0.00498353 -1349.71 -1421.56 -2993.05 300
  73 1475.08 470410 -0.000425614 -0.00377608 -0.000227504 1017.35 650.212 1737.72 300.174
  74 1495.4 484955 -0.00108433 0.000956776 0.000550619 -1520.48 -1156.36 -3120.72 300.193
  75 1515.73 478235 -0.00312926 -0.00115083 -0.00199552 174.259 296.05 168.126 300.651
  76 1536.05 470400 -0.00348772 0.000381003 -0.0021129 248.831 82.5943 -424.899 299.883
  77 1556.38 472744 -0.000715893 -0.00105942 0.00218023 -433.931 191.719 -276.09 299.502
  78 1576.7 490368 0.000367415 0.00169774 -0.000445371 -2256.91 -2546.58 -5735.54 299.833
  79 1597.03 470488 0.00339315 0.00320388 0.00107761 964.028 978.202 2321.32 300.453
  80 1617.35 470434 0.00340852 -0.00219575 0.00168702 544.2 722.852 1497.94 300.167
  81 1637.68 489247 -0.00194235 0.000373895 0.00147652 1065.99 1055.09 2064.25 299.933
  82 1658 473919 -0.000403368 -0.000496845 0.00667363 4455.03 4827.27 9824.04 300.19
  83 1678.33 470400 -0.000156081 -0.00111603 -0.00656551 -2962.82 -3011.96 -6850.31 300.772
  84 1698.65 475592 0.00154729 -7.47867e-05 0.0122294 7317.09 6627.91 15237.4 300.588
  85 1718.98 487596 0.00170948 -0.0011421 -0.0228087 -10698.1 -10330.3 -22425.7 300.747
  86 1739.3 470412 -0.00194342 9.48709e-05 0.0110921 6744.44 6240.55 12397.8 300.438
  87 1759.63 470591 0.000836301 0.00034826 0.0125197 5329.96 5872.05 11210.9 300.809
  88 1779.95 491035 0.000392309 0.00125524 -0.0222325 3035.17 2916.58 7194.85 299.961
  89 1800.28 471974 -0.000999645 0.00215282 0.0389584 -19230.4 -20440.9 -45663.4 301.55
  90 1820.6 470403 -0.00159196 -0.000685709 -0.0240448 12965.8 12971.5 31260.9 302.814
  91 1840.93 481073 0.00107288 -0.00184151 -0.00438662 -998.936 -458.9 -2737.53 303.16
  92 1861.25 225068 0.00777792 -0.00161404 -0.00107382 231675 232354 16967.7 305.24
800 92 43672908
  1 14.994 503464 0.00179604 -0.00112965 7.47683 -2.39293e+06 -2.39147e+06 -7.50447e+06 4224.75
  2 35.319 559643 0.00226044 -0.00035819 7.11516 -4.31451e+06 -4.31542e+06 -1.17951e+07 4276.84
  3 55.644 493162 -0.00210026 -0.001578 3.00374 -1.62434e+06 -1.62444e+06 -4.77034e+06 2419.93
  4 75.969 485904 -0.00200023 0.00301139 0.00447629 -558.244 -358.564 -1745.54 300.291
  5 96.294 477283 0.00116882 -0.000887162 0.00239636 -1002.5 -802.044 -1884.32 300.142
  6 116.619 470400 -0.00218089 -0.00336455 -0.00579119 4815.68 5576.04 10969.3 299.662
  7 136.944 473048 0.000970457 0.00332756 -0.00118307 1391.47 1139.21 2304.55 300.843
  8 157.269 490099 8.26799e-06 0.00147379 0.0191114 -10428.7 -10023.9 -22022.1 300.912
  9 177.594 470453 0.00212201 -0.00222716 -0.0126425 7904.55 7722.06 16288.2 300.442
  10 197.919 470480 -0.0011367 -0.000850452 0.0111802 -5886.52 -5751.99 -13353.3 300.146
  11 218.244 489716 0.00206231 0.000506712 -0.00828948 4406.37 4305.78 9911.36 300.596
  12 238.569 473404 0.00185084 -0.00293144 -0.00137414 1960.47 2403.03 4101.29 299.968
  13 258.894 470400 0.00313647 -0.000638019 -0.000135651 -1138.05 -1927.66 -3211.15 300.383
  14 279.219 476903 -0.00213025 0.000491108 -0.00110465 2467.42 1152.2 3796.5 300.065
  15 299.544 486290 -0.00193079 -0.00142394 -0.00039603 1385.21 1304.06 2438.46 299.98
  16 319.869 470407 -0.000454125 0.00055688 -0.00130365 -838.665 608.641 -289.905 300.018
  17 340.194 470692 -0.000320549 -0.00180192 -0.00296784 393.747 -128.567 73.0241 299.843
  18 360.519 491515 -0.00139338 0.000506106 -5.51022e-05 -808.519 -1191.4 -2546.01 300.141
  19 380.844 471393 0.00100351 -0.00219298 0.00103506 -651.196 -109.45 -674.145 300.531
  20 401.169 470401 0.000339142 0.00102171 -0.000655271 -468.585 37.8939 -671.061 300.105
  21 421.494 482398 -0.000409038 0.00105906 0.00243732 -831.086 -581.239 -1584.71 300.56
  22 441.819 480801 -0.00174383 0.00080761 0.000245813 160.072 1177.05 1436 300.084
  23 462.144 470400 0.00264876 -0.00097377 -0.000762312 1785.95 1114.31 2552.82 300.29
  24 482.469 471588 0.00207285 0.00178173 -0.0034559 843.705 306.022 1270.58 300.023
  25 502.794 491409 0.00162924 0.00046858 -0.00328615 -759.334 924.33 -266.904 299.995
  26 523.119 470603 -0.00267819 0.000204568 0.00120947 1326.78 1671.48 3134.92 299.989
  27 543.444 470408 0.00425182 0.0033507 -0.00275882 310.671 -117.133 425.699 300.362
  28 563.769 486953 -8.4343e-05 0.00076357 0.000221141 646.985 1220.2 1584.74 299.781
  29 584.094 476239 0.000172011 0.000949714 -9.40819e-05 937.434 881.999 2043.69 299.678
  30 604.419 470400 -0.00079573 -0.000679084 -4.51376e-05 1076.23 927.75 1321.76 299.826
  31 624.744 473855 0.0022106 0.00173869 0.0013492 708.735 79.9026 1014.55 299.847
  32 645.069 489316 0.00316389 0.00177396 -0.0020801 -180.525 -37.3067 -563.131 299.218
  33 665.394 470429 5.76138e-05 -0.0011315 0.00106365 -305.479 -346.122 -949.306 300.061
  34 685.719 470488 -0.00166405 0.00352926 0.00410633 1414.99 763.175 2639.74 299.536
  35 706.044 490297 -0.0012843 -0.00554642 0.00105352 458.436 644.691 421.839 300.632
  36 726.369 472815 -0.00125516 0.0012469 -0.000562329 -1050.14 -117.338 -1187.45 300.548
  37 746.694 470401 -2.30847e-05 0.00182748 -0.000629992 2709.45 1597.3 3998.72 300.273
  38 767.019 477728 -0.00214255 0.00280917 0.000627087 1079.57 887.341 2436.93 300.493
  39 787.344 485466 -0.000949776 0.00361026 0.00190467 560.052 1201.31 1511.03 299.885
  40 807.669 470262 -0.00148471 -0.001332 0.000427116 -780.899 -563.652 -2327.04 300.178
